freq	long real	long imag	dipole Hor real	dipole Hor imag	Dipole Ver real	Dipole Ver imag	Detuning Hor real	Detuning Hor imag	Detuning Ver real	Detuning Ver imag
1e-05	5.442544480105393e-09	4.1690624250697094e-09	193.55262704849375	133164.51345120874	193.19483902678684	132919.50613937352	1325.096674681388	1012.1785418733016	-1325.096674681388	-1012.1785418733016
1.1510948505908395e-05	5.750086793466807e-09	4.496051712544995e-09	207.61663485174384	133150.36431457585	207.2329996851125	132905.38313395547	1216.2105417772582	948.1043688028826	-1216.2105417772582	-948.1043688028826
1.325019355056747e-05	6.080946838373116e-09	4.844854440781322e-09	222.69914799386586	133135.18387199639	222.28778073083546	132890.23072137684	1117.3631377533625	887.3705525810274	-1117.3631377533625	-887.3705525810274
1.5252229565390198e-05	6.43679540671592e-09	5.217261507754029e-09	238.8734033296676	133118.8969577802	238.43228478584044	132873.9738745293	1027.4994271980909	829.9639121438544	-1027.4994271980909	-829.9639121438544
1.7556762912750012e-05	6.819420111560486e-09	5.615171761502496e-09	256.2178254358279	133101.4229290138	255.74479254243676	132856.53209920382	945.6883923262404	775.8261494390825	-945.6883923262404	-775.8261494390825
2.020949938191077e-05	7.230735752475077e-09	6.04060261796468e-09	274.81638213889295	133082.67526674937	274.30911764536637	132837.81903600888	871.107603768618	724.8670236232014	-871.107603768618	-724.8670236232014
2.326305067153624e-05	7.672794974145022e-09	6.495701122213974e-09	294.75896250576193	133062.56114816264	294.214983987238	132817.7420333528	803.0296537267377	676.9743654271801	-803.0296537267377	-676.9743654271801
2.677797783703919e-05	8.147799346479846e-09	6.982755515920865e-09	316.14177856009945	133040.98098773166	315.5584267026288	132796.2016893623	740.8102000450455	632.0216496556286	-740.8102000450455	-632.0216496556286
3.082399239745143e-05	8.658110980601855e-09	7.504207380155145e-09	339.0677917621338	133017.82794500332	338.4422178898338	132773.0913606578	683.8775965025467	589.8737279225894	-683.8775965025467	-589.8737279225894
3.5481338923357534e-05	9.206264783540796e-09	8.062664427107e-09	363.64716550281906	132992.98739671626	362.9763182287006	132748.29663539727	631.7238090076697	550.3911123790866	-631.7238090076697	-550.3911123790866
4.0842386526745174e-05	9.79498144654061e-09	8.660914016534677e-09	389.9977446520741	132966.33637065385	389.27835568364264	132721.69476817155	583.8965458526087	513.4331542644286	-583.8965458526087	-513.4331542644286
4.7013460816777144e-05	1.0427181259504658e-08	9.301937476442935e-09	418.24556333489426	132937.74293851273	417.47413237415935	132693.1540739612	539.9924059783557	478.860377553508	-539.9924059783557	-478.860377553508
5.411695265464637e-05	1.110599884058521e-08	9.988925310579718e-09	448.52538193416706	132907.06556477296	447.69816051900085	132662.5332783032	499.6509631852272	446.5361718846928	-499.6509631852272	-446.5361718846928
6.22937455304317e-05	1.1834798868322052e-08	1.0725293377659105e-08	480.98125436016534	132874.15240858754	480.09422873087766	132629.68082035793	462.54956872747886	416.327993959235	-462.54956872747886	-416.327993959235
7.170600970409605e-05	1.2617192910377432e-08	1.151470013177373e-08	515.7671264405881	132838.84057526023	514.8159992841163	132594.43410581612	428.39889699816524	388.10816916404536	-428.39889699816524	-388.10816916404536
8.25404185268019e-05	1.345705743830633e-08	1.236106501705952e-08	553.0474662503976	132800.95531374053	552.0276372721797	132556.61870587786	396.9390278336963	361.75442302926604	-396.9390278336963	-361.75442302926604
9.501185073181438e-05	1.4358553127166987e-08	1.3268588114547874e-08	592.9979268967726	132760.30915641575	591.9044722168325	132516.0474986256	367.9360574448383	337.15019597795174	-367.9360574448383	-337.15019597795174
0.00010936765212249702	1.5326145541375885e-08	1.4241771144441207e-08	635.8060423242895	132716.70099712376	634.6336925102981	132472.5197487041	341.17912349797706	314.1847791112463	-341.17912349797706	-314.1847791112463
0.0001258925411794166	1.6364627312666835e-08	1.5285439932621277e-08	681.6719560971305	132669.91510306284	680.4150729608446	132425.82012110576	316.4778302298989	292.7533488210727	-316.4778302298989	-292.7533488210727
0.00014491425587942182	1.7479141925141633e-08	1.6404768457174204e-08	730.8091831887568	132619.72005615217	729.4617351394089	132375.71762443747	293.65998164769223	272.75689915110416	-293.65998164769223	-272.75689915110416
0.0001668100537200059	1.8675209226772105e-08	1.7605304597796946e-08	783.445404185482	132565.8676188718	782.0009400487492	132321.96447889647	272.569592222495	254.10211191340468	-272.569592222495	-254.10211191340468
0.00019201419386388012	1.995875279668935e-08	1.8892997717922463e-08	839.8232907937419	132508.09151963342	838.2749122379977	132264.29490377574	253.0651516770816	236.7011700623214	-253.0651516770816	-236.7011700623214
0.00022102654979706357	2.1336129304611532e-08	2.0274228220345685e-08	900.2013614207873	132446.10615211396	898.5416937027301	132202.42381940066	235.01810339696837	220.47157335198366	-235.01810339696837	-220.47157335198366
0.00025442252331525986	2.2814160010619407e-08	2.1755839223376304e-08	964.8548643799271	132379.60518308412	963.0760255768023	132136.0454572682	218.31147925992656	205.33588725657737	-218.31147925992656	-205.33588725657737
0.00029286445646252375	2.4400164561023878e-08	2.3345170517416034e-08	1034.0766859807616	132308.26006268515	1032.170254404833	132064.8318733012	202.83872558639825	191.22152029675286	-202.83872558639825	-191.22152029675286
0.00033711476775509616	2.610199724893211e-08	2.505009497121122e-08	1108.1782796254038	132231.71843088095	1106.1352595997735	131988.43135705817	188.50264481054305	178.06047257434338	-188.50264481054305	-178.06047257434338
0.00038805107322101794	2.792808591999488e-08	2.6879057569930066e-08	1187.4906110211837	132149.60241368506	1185.3013970306868	131906.46673124097	175.21447174479394	165.78909426731562	-175.21447174479394	-165.78909426731562
0.00044668359215096305	2.988747371685546e-08	2.8841117279018007e-08	1272.3651135759521	132061.50680255715	1270.0194524518292	131818.5335343006	162.8930387454854	154.34783839589227	-162.8930387454854	-154.34783839589227
0.0005141751827683928	3.198986386754705e-08	3.094599194243e-08	1363.1746463085747	131966.99710982997	1360.6615978034806	131724.1980796163	151.4640492481048	143.68103521098269	-151.4640492481048	-143.68103521098269
0.0005918644051863006	3.4245667743255004e-08	3.3204106438908443e-08	1460.3144453465	131865.60749338203	1457.622340840692	131622.99538389366	140.85942016932088	133.73665418431952	-140.85942016932088	-133.73665418431952
0.0006812920690579609	3.666605641986731e-08	3.5626644335593545e-08	1564.2030577615028	131756.8385434182	1561.3194573831634	131514.4269581065	131.0167080125494	124.46608616838674	-131.0167080125494	-124.46608616838674
0.0007842317924409981	3.926301600365002e-08	3.822560329174135e-08	1675.283245057505	131640.15492443775	1672.194893276907	131397.95845331502	121.87856524245798	115.82394214717311	-121.87856524245798	-115.82394214717311
0.0009027251779484579	4.204940698793714e-08	4.101385449643249e-08	1794.0228400681888	131514.98286437555	1790.7156190030673	131273.01715560938	113.39231157111824	107.76783149189002	-113.39231157111824	-107.76783149189002
0.001039122303835169	4.503902794493158e-08	4.4005206423125914e-08	1920.9155394664167	131380.70748663577	1917.3744218325762	131138.98932175618	105.5094673971375	100.25820616456589	-105.5094673971375	-100.25820616456589
0.0011961283330787528	4.824668385669868e-08	4.7214473227631036e-08	2056.4816098902293	131236.6699758655	2052.690609669421	130995.21735093334	98.18543515297966	93.25813225453378	-98.18543515297966	-93.25813225453378
0.0013768571648527582	5.168825943525276e-08	5.065754812268981e-08	2201.268482734172	131082.16457454357	2197.21060533982	130840.99678666783	91.37911057376938	86.73317061530025	-91.37911057376938	-86.73317061530025
0.0015848931924611126	5.538079778461642e-08	5.435148209450092e-08	2355.8512083400738	130916.43540364112	2351.508399159315	130675.57314336146	85.05260362346822	80.65116477007858	-85.05260362346822	-80.65116477007858
0.0018243623925784647	5.934258480212286e-08	5.831456834781178e-08	2520.8327360191915	130738.67310872955	2516.1858315220225	130498.13855855976	79.17095989427752	74.98219250747587	-79.17095989427752	-74.98219250747587
0.002100014155708654	6.359323973348584e-08	6.256643291247337e-08	2696.843980965643	130548.01131918082	2691.8726535234364	130307.82825877532	73.70191708373864	69.69823791376268	-73.70191708373864	-69.69823791376268
0.0024173154808041037	6.815381232243615e-08	6.712813182913697e-08	2884.543634518797	130343.52293846686	2879.2263435765863	130103.71685698528	68.61567716561544	64.7732940012557	-68.61567716561544	-64.7732940012557
0.002782559402207123	7.304688708524068e-08	7.202225545014158e-08	3084.6176655239997	130124.21625594632	3078.9316078615648	129884.814468736	63.884674912817154	60.18290446240539	-63.884674912817154	-60.18290446240539
0.0032029897993437473	7.829669508875458e-08	7.727304028137372e-08	3297.7784611913644	129889.03088495471	3291.699520654294	129650.06266443683	59.483439599476526	55.90453059730478	-59.483439599476526	-55.90453059730478
0.0036869450645195733	8.392923400481316e-08	8.290648903541291e-08	3524.7635344165806	129636.83356002618	3518.266237406031	129398.33026661565	55.38842177003854	51.91699793489143	-55.38842177003854	-51.91699793489143
0.004244023478179796	8.997239683478872e-08	8.895049940264014e-08	3766.3337370705426	129366.41378563276	3759.3912079776715	129128.40901027054	51.57779084919584	48.20059383857446	-51.57779084919584	-48.20059383857446
0.004885273571519386	9.645611002691965e-08	9.543500219439716e-08	4023.2708886778396	129076.4793745736	4015.8548133102277	128839.0090910381	48.03135158877129	44.736932193529555	-48.03135158877129	-44.736932193529555
0.005623413251903491	1.0341248168857669e-07	1.0239210957504922e-07	4296.374742793995	128765.65191163466	4288.455334607641	128528.75463424767	44.73037881626275	41.508928515488776	-44.73037881626275	-41.508928515488776
0.006473082037010395	1.1087596059091261e-07	1.0985627409384423e-07	4586.4591872179435	128432.46217692019	4578.0051615424745	128196.1791278054	41.657533804840995	38.500583388112815	-41.657533804840995	-38.500583388112815
0.007451131400254735	1.1888350675561689e-07	1.1786445929035158e-07	4894.347576867232	128075.3455888096	4885.326133498065	127839.72087375041	38.79671998177564	35.69701249766455	-38.79671998177564	-35.69701249766455
0.008576958985908937	1.2747477448824239e-07	1.2645632274966226e-07	5220.867085818205	127692.63773600315	5211.243903118705	127457.71852863766	36.133029297517794	33.08435446999475	-36.133029297517794	-33.08435446999475
0.009872893322408616	1.3669230875384876e-07	1.3567441249519961e-07	5566.841959711081	127282.57008389894	5556.581199685391	127048.40681698722	33.652609257124496	30.649695813384294	-33.652609257124496	-30.649695813384294
0.011364636663857243	1.465817558635373e-07	1.4556437769190253e-07	5933.085539525162	126843.26595881749	5922.149869246732	126609.91252467105	31.342607953694724	28.38096001323966	-31.342607953694724	-28.38096001323966
0.013081774742601943	1.5719208950589845e-07	1.561751947019039e-07	6320.390935000159	126372.73694653026	6308.74156160413	126140.25089923374	29.191117499964665	26.26695153589748	-29.191117499964665	-26.26695153589748
0.0150583635427984	1.6857585330554867e-07	1.6755940963029095e-07	6729.520197926797	125868.87983887256	6717.116930523794	125637.32261039002	27.187023215365812	24.297207575685697	-27.187023215365812	-24.297207575685697
0.017333604732440087	1.8078942135581425e-07	1.7977339867463177e-07	7161.191830308732	125329.47415604522	7147.993231058679	125098.91145752574	25.319678984996774	22.461237712729073	-25.319678984996774	-22.461237712729073
0.01995262314968879	1.938932755776725e-07	1.9287764671106958e-07	7616.066922245063	124752.18171527547	7602.030120687296	124522.68300201735	23.580707260064813	20.752049842120076	-23.580707260064813	-20.752049842120076
0.022967361763386363	2.0795230888615717e-07	2.0693704793878737e-07	8094.732494079694	124134.54466735372	8079.813763896769	123906.18448638356	21.96000458944615	19.159136794071312	-21.96000458944615	-19.159136794071312
0.026437611857490984	2.2303614289490913e-07	2.2202122617763056e-07	8597.684164814073	123473.98868351366	8581.838799903875	123246.84613647783	20.449723176690995	17.675285286158026	-20.449723176690995	-17.675285286158026
0.03043219887107722	2.3921947451535654e-07	2.3820488017704606e-07	9125.305871923258	122767.8252258304	9108.4884659558	122541.98436717429	19.042181252564202	16.29314618783833	-19.042181252564202	-16.29314618783833
0.035030347412653345	2.565824455001202e-07	2.555681534315159e-07	9677.847948948373	122013.25710750271	9660.012642668551	121788.80714247987	17.730235289375113	15.005874913658293	-17.730235289375113	-15.005874913658293
0.04032325252111345	2.752110393138486e-07	2.7419703106447105e-07	10255.40315205638	121207.38646636426	10236.503924541134	120984.42193808811	16.50725006682932	13.807099142726322	-16.50725006682932	-13.807099142726322
0.046415888336127774	2.9519750693062345e-07	2.941837656398411e-07	10857.880795376403	120347.22579408332	10837.871802843343	120125.84674629664	15.367023647493578	12.69088825922639	-15.367023647493578	-12.69088825922639
0.05342909004931614	3.1664082368550655e-07	3.15627334016997e-07	11484.979181592364	119429.71248503096	11463.815144617029	119210.02459809066	14.303845694359365	11.651678569303575	-14.303845694359365	-11.651678569303575
0.06150195042752207	3.3964717939108743e-07	3.3863392746552773e-07	12136.156599471316	118451.72741552177	12113.793253850192	118233.84211419417	13.3123260729638	10.684408067594342	-13.3123260729638	-10.684408067594342
0.0707945784384138	3.643305042124329e-07	3.6331747761505477e-07	12810.601306434985	117410.11805607314	12786.995891748202	117194.15256382085	12.387508385081876	9.784197618049275	-12.387508385081876	-9.784197618049275
0.08149127469020741	3.9081303286969074e-07	3.8980022058310157e-07	13507.201014861477	116301.72662212333	13482.312834658407	116087.80397219032	11.524784018925132	8.9466207959692	-11.524784018925132	-8.9466207959692
0.09380418666398135	4.192259099424165e-07	4.18213302358702e-07	14224.51258719231	115123.42371943353	14198.30361958996	114911.67270072993	10.719756467967693	8.167511812400864	-10.719756467967693	-8.167511812400864
0.10797751623277094	4.4970983933356874e-07	4.486974282343983e-07	14960.732785317014	113872.14788659678	14933.168343848292	113662.70291579212	9.96849620416991	7.443021393002135	-9.96849620416991	-7.443021393002135
0.1242923629151314	4.824157810330008e-07	4.81403559616284e-07	15713.671113641958	112544.95132063956	15684.720563381095	112337.95223070144	9.267243762211551	6.769551254431762	-9.267243762211551	-6.769551254431762
0.1430722989193756	5.175056986977569e-07	5.164936616066051e-07	16480.725953030018	111139.05192649079	16450.363469210955	110934.6436596504	8.612504868523086	6.1437656884457	-8.612504868523086	-6.1437656884457
0.1646897865482869	5.551533617207311e-07	5.54141505082624e-07	17258.86537676348	109651.89163715903	17227.070730692307	109450.22382702692	8.001089769804253	5.562532204195898	-8.001089769804253	-5.562532204195898
0.18957356524063754	5.955452057418998e-07	5.945335272448285e-07	18044.614108777165	108081.2006590363	18011.373494025465	107882.4271003009	7.429951399420392	5.022983170215052	-7.429951399420392	-5.022983170215052
0.2182171547566444	6.388812559140712e-07	6.378697548848978e-07	18834.048325654665	106425.06705882908	18799.355176549238	106229.34504307406	6.896309605237774	4.522424752060524	-6.896309605237774	-4.522424752060524
0.2511886431509577	6.853761174460001e-07	6.843647949592067e-07	19622.79987645403	104682.01065586264	19586.655686951875	104489.50017322907	6.397560519371045	4.058357541015008	-6.397560519371045	-4.058357541015008
0.2891419536579679	7.352600383515816e-07	7.342488973636348e-07	20406.071599457435	102851.05984515569	20368.48671115254	102661.92264514632	5.931291350022827	3.6284609462034485	-5.931291350022827	-3.6284609462034485
0.332829813945462	7.887800496668978e-07	7.877690951778472e-07	21178.66521536482	100931.82951278421	21139.659553777656	100746.22802097285	5.495259925570549	3.230577490512619	-5.495259925570549	-3.230577490512619
0.3831186849557285	8.46201188776227e-07	8.451904280241166e-07	21935.023049734995	98924.59776749637	21894.62678461056	98742.6938612816	5.087382096608972	2.8627023494067303	-5.087382096608972	-2.8627023494067303
0.4410059454176732	9.078078119105751e-07	9.067972546009854e-07	22669.284472397263	96830.37881146315	22627.538565260013	96652.33246246888	4.705743953707277	2.522971049528743	-4.705743953707277	-2.522971049528743
0.5076396728502295	9.739050023095624e-07	9.728946608893663e-07	23375.35739588335	94650.98887570327	23332.31403144146	94476.95667063096	4.348547328571259	2.2096514259086146	-4.348547328571259	-2.2096514259086146
0.5843414133735175	1.044820081033501e-06	1.0438099710092034e-06	24047.00461771027	92389.10197440772	24002.727459614394	92219.23553439724	4.014146838175287	1.921130755142129	-4.014146838175287	-1.921130755142129
0.6726323919212291	1.1209042278907281e-06	1.1198943682045824e-06	24677.943951352125	90048.29202274172	24632.508218999337	89882.73634569271	3.70102129665602	1.6559066311090707	-3.70102129665602	-1.6559066311090707
0.7742636826811262	1.2025342205381873e-06	1.2015246339944503e-06	25261.96033109255	87633.05801718074	25215.452677883404	87471.94977621084	3.407759396389865	1.412582584419219	-3.407759396389865	-1.412582584419219
0.8912509381337459	1.2901143002964267e-06	1.2891050140808627e-06	25793.027241227875	85148.82924275447	25745.545389431896	84992.29507287878	3.1330757593094796	1.1898485012935143	-3.1330757593094796	-1.1898485012935143
1.0259143654700098	1.384078174031797e-06	1.383069220290248e-06	26265.43390388978	82601.94798648091	26217.086064904648	82450.10280778889	2.875780843600748	0.986482776307524	-2.875780843600748	-0.986482776307524
1.1809247432396968	1.4848911619108118e-06	1.4838825784303414e-06	26673.914078712838	79999.62803233312	26624.81812653779	79852.57344895953	2.6347861341910455	0.801338745361525	-2.6347861341910455	-0.801338745361525
1.3593563908785242	1.5930525017198334e-06	1.5920443327171314e-06	27013.771677352684	77349.88816322206	26964.054093317816	77207.71098645353	2.409095222020927	0.6333379981692372	-2.409095222020927	-0.6333379981692372
1.5647481416580207	1.7090978211528974e-06	1.7080901181827871e-06	27280.9981525652	74661.46105151251	27230.792754520564	74524.2319917162	2.1977977430854096	0.4814626654220886	-2.1977977430854096	-0.4814626654220886
1.801173528334133	1.8336017903021655e-06	1.8325946133072405e-06	27472.376603764464	71943.67915248215	27421.823084634914	71811.45172206822	2.000062524151592	0.34474821874800915	-2.000062524151592	-0.34474821874800915
2.073321573485954	1.967180967492731e-06	1.9661743860155494e-06	27585.56786840312	69206.34045854224	27534.81017742399	69079.15012289275	1.8151318879088236	0.2222775066767657	-1.8151318879088236	-0.2222775066767657
2.3865897868585786	2.1104968525531464e-06	2.1094909471330453e-06	27619.174523721016	66459.558122728	27568.35913113255	66337.42172847083	1.6423144128488187	0.1131739295706077	-1.6423144128488187	-0.1131739295706077
2.7471912141256043	2.264259162642602e-06	2.2632540264238374e-06	27572.779677919018	63713.598919939584	27522.053769560895	63596.514420951426	1.4809789823765958	0.016596170081687317	-1.4809789823765958	-0.016596170081687317
3.1622776601683795	2.429229346854455e-06	2.4282250874425476e-06	27446.958622685852	60978.71619768011	27396.468274811927	60866.66268846789	1.3305479023636402	-0.06826588780073496	-1.3305479023636402	0.06826588780073496
